function epsAg = gold(lambda)

%Measured optical dielectric function ?r = ?1 + i?2 and N? = n + ik for evaporated gold.
%Data supplement to R. L. Olmon et al., Phys. Rev. B (2012).
lambda = reshape(lambda,[],1);

d = data;
nreal = interp1(d(:,1),d(:,2),lambda,'spline');
nimag = interp1(d(:,1),d(:,3),lambda,'spline');
epsAg = (nreal + 1i*nimag).^2;

function d = data 

d = [0.3000    1.5960    1.8880
    0.3100    1.6490    1.8950
    0.3200    1.6850    1.8810
    0.3300    1.7010    1.8580
    0.3400    1.6950    1.8350
    0.3500    1.6710    1.8210
    0.3600    1.6370    1.8250
    0.3700    1.6060    1.8460
    0.3800    1.5880    1.8770
    0.3900    1.5850    1.9040
    0.4000    1.5880    1.9150
    0.4100    1.5850    1.9110
    0.4200    1.5670    1.8980
    0.4300    1.5370    1.8870
    0.4400    1.5050    1.8770
    0.4500    1.4720    1.8550
    0.4600    1.4220    1.8120
    0.4700    1.3330    1.7580
    0.4800    1.1930    1.7160
    0.4900    1.0110    1.7200
    0.5000    0.8197    1.7870
    0.5100    0.6527    1.9080
    0.5200    0.5263    2.0580
    0.5300    0.4363    2.2130
    0.5400    0.3724    2.3640
    0.5500    0.3256    2.5070
    0.5600    0.2899    2.6410
    0.5700    0.2617    2.7690
    0.5800    0.2388    2.8910
    0.5900    0.2199    3.0090
    0.6000    0.2041    3.1220
    0.6100    0.1908    3.2320
    0.6200    0.1794    3.3400
    0.6300    0.1698    3.4440
    0.6400    0.1616    3.5470
    0.6500    0.1546    3.6470
    0.6600    0.1487    3.7460
    0.6700    0.1436    3.8430
    0.6800    0.1394    3.9380
    0.6900    0.1358    4.0330
    0.7000    0.1328    4.1260
    0.7100    0.1304    4.2170
    0.7200    0.1284    4.3080
    0.7300    0.1268    4.3980
    0.7400    0.1257    4.4870
    0.7500    0.1248    4.5750
    0.7600    0.1242    4.6620
    0.7700    0.1239    4.7490
    0.7800    0.1239    4.8340
    0.7900    0.1240    4.9200
    0.8000    0.1244    5.0040
    0.8100    0.1249    5.0880
    0.8200    0.1256    5.1720
    0.8300    0.1265    5.2550
    0.8400    0.1275    5.3380
    0.8500    0.1286    5.4200
    0.8600    0.1298    5.5010
    0.8700    0.1312    5.5830
    0.8800    0.1326    5.6640
    0.8900    0.1342    5.7450
    0.9000    0.1358    5.8250
    0.9100    0.1375    5.9050
    0.9200    0.1393    5.9850
    0.9300    0.1412    6.0640
    0.9400    0.1431    6.1430
    0.9500    0.1451    6.2220
    0.9600    0.1471    6.3010
    0.9700    0.1493    6.3790
    0.9800    0.1514    6.4570
    0.9900    0.1536    6.5350
    1.0000    0.1559    6.6130
    1.0100    0.1582    6.6900
    1.0200    0.1606    6.7680
    1.0300    0.1630    6.8450
    1.0400    0.1655    6.9220
    1.0500    0.1680    6.9990
    1.0600    0.1705    7.0750
    1.0700    0.1731    7.1520
    1.0800    0.1757    7.2280
    1.0900    0.1783    7.3040
    1.1000    0.1810    7.3800
    1.1100    0.1837    7.4560
    1.1200    0.1865    7.5320
    1.1300    0.1893    7.6080
    1.1400    0.1921    7.6830
    1.1500    0.1949    7.7590
    1.1600    0.1978    7.8340
    1.1700    0.2007    7.9090
    1.1800    0.2036    7.9840
    1.1900    0.2066    8.0590
    1.2000    0.2096    8.1340
    1.2100    0.2126    8.2080
    1.2200    0.2157    8.2830
    1.2300    0.2187    8.3580
    1.2400    0.2218    8.4320
    1.2500    0.2250    8.5060
    1.2600    0.2281    8.5810
    1.2700    0.2313    8.6550
    1.2800    0.2342    8.7250
    1.2900    0.2371    8.7950
    1.3000    0.2400    8.8650
    1.3100    0.2430    8.9350
    1.3200    0.2460    9.0050
    1.3300    0.2490    9.0750
    1.3400    0.2520    9.1450
    1.3500    0.2551    9.2140
    1.4300    0.2824    9.7960
    1.4400    0.2857    9.8650
    1.4500    0.2889    9.9340
    1.4600    0.2922   10.0000
    1.4700    0.2955   10.0700
    1.4800    0.2988   10.1400
    1.4900    0.3021   10.2100
    1.5000    0.3055   10.2800
    1.5100    0.3089   10.3500
    1.5200    0.3123   10.4100
    1.5300    0.3157   10.4800
    1.5400    0.3191   10.5500
    1.5500    0.3226   10.6200
    1.5600    0.3260   10.6900
    1.5700    0.3295   10.7600
    1.5800    0.3331   10.8200
    1.5900    0.3366   10.8900
    1.6000    0.3402   10.9600
    1.6100    0.3437   11.0300
    1.6200    0.3474   11.1000
    1.6300    0.3510   11.1600
    1.6400    0.3546   11.2300
    1.6500    0.3583   11.3000
    1.6600    0.3620   11.3700
    1.6700    0.3657   11.4400
    1.6800    0.3695   11.5000
    1.6900    0.3732   11.5700
    1.7000    0.3770   11.6400
    1.7100    0.3808   11.7100
    1.7200    0.3847   11.7700
    1.7300    0.3885   11.8400
    1.7400    0.3924   11.9100
    1.7500    0.3963   11.9800
    1.7600    0.4003   12.0400
    1.7700    0.4042   12.1100
    1.7800    0.4082   12.1800
    1.7900    0.4123   12.2500
    1.8000    0.4163   12.3100
    1.8100    0.4204   12.3800
    1.8200    0.4245   12.4500
    1.8300    0.4286   12.5200
    1.8400    0.4328   12.5800
    1.8500    0.4369   12.6500
    1.8600    0.4412   12.7200
    1.8700    0.4454   12.7800
    1.8800    0.4497   12.8500
    1.8900    0.4540   12.9200
    1.9000    0.4583   12.9900
    1.9100    0.4627   13.0500
    1.9200    0.4671   13.1200
    1.9300    0.4715   13.1900
    1.9400    0.4760   13.2500
    1.9500    0.4805   13.3200
    1.9600    0.4851   13.3900
    1.9700    0.4896   13.4600
    1.9800    0.4942   13.5200
    1.9900    0.4989   13.5900
    2.0000    0.5031   13.6500
    2.0070    0.5068   13.7000
    2.0190    0.5129   13.7900
    2.0250    0.5160   13.8400
    2.0380    0.5224   13.9300
    2.0450    0.5256   13.9700
    2.0580    0.5321   14.0600
    2.0640    0.5354   14.1100
    2.0770    0.5421   14.2000
    2.0840    0.5455   14.2500
    2.0980    0.5524   14.3500
    2.1040    0.5559   14.3900
    2.1180    0.5630   14.4900
    2.1250    0.5666   14.5400
    2.1390    0.5739   14.6400
    2.1460    0.5776   14.6900
    2.1530    0.5814   14.7400
    2.1680    0.5890   14.8400
    2.1750    0.5929   14.8900
    2.1900    0.6007   15.0000
    2.1970    0.6047   15.0500
    2.2050    0.6087   15.1000
    2.2200    0.6168   15.2100
    2.2270    0.6210   15.2600
    2.2350    0.6252   15.3200
    2.2430    0.6294   15.3700
    2.2580    0.6380   15.4800
    2.2660    0.6423   15.5400
    2.2740    0.6468   15.5900
    2.2820    0.6512   15.6500
    2.2980    0.6603   15.7600
    2.3070    0.6649   15.8200
    2.3150    0.6695   15.8800
    2.3230    0.6742   15.9400
    2.3400    0.6837   16.0600
    2.3480    0.6886   16.1100
    2.3570    0.6935   16.1700
    2.3650    0.6984   16.2400
    2.3740    0.7034   16.3000
    2.3830    0.7085   16.3600
    2.3920    0.7136   16.4200
    2.4090    0.7240   16.5400
    2.4180    0.7293   16.6100
    2.4270    0.7347   16.6700
    2.4370    0.7401   16.7300
    2.4460    0.7455   16.8000
    2.4550    0.7511   16.8600
    2.4640    0.7566   16.9300
    2.4740    0.7623   17.0000
    2.4830    0.7680   17.0600
    2.4930    0.7738   17.1300
    2.5020    0.7797   17.2000
    2.5120    0.7856   17.2600
    2.5220    0.7916   17.3300
    2.5320    0.7976   17.4000
    2.5420    0.8037   17.4700
    2.5520    0.8099   17.5400
    2.5620    0.8162   17.6100
    2.5720    0.8226   17.6800
    2.5820    0.8290   17.7500
    2.5930    0.8355   17.8300
    2.6030    0.8421   17.9000
    2.6130    0.8487   17.9700
    2.6240    0.8554   18.0500
    2.6350    0.8623   18.1200
    2.6450    0.8692   18.2000
    2.6560    0.8761   18.2700
    2.6670    0.8832   18.3500
    2.6780    0.8904   18.4300
    2.6890    0.8976   18.5000
    2.7010    0.9049   18.5800
    2.7120    0.9123   18.6600
    2.7230    0.9199   18.7400
    2.7350    0.9275   18.8200
    2.7460    0.9352   18.9000
    2.7580    0.9430   18.9800
    2.7700    0.9509   19.0600
    2.7820    0.9589   19.1500
    2.7940    0.9670   19.2300
    2.8060    0.9752   19.3200
    2.8180    0.9835   19.4000
    2.8300    0.9919   19.4900
    2.8430    1.0000   19.5700
    2.8550    1.0090   19.6600
    2.8680    1.0180   19.7500
    2.8810    1.0270   19.8400
    2.8930    1.0360   19.9300
    2.9060    1.0450   20.0200
    2.9190    1.0540   20.1100
    2.9330    1.0630   20.2000
    2.9460    1.0730   20.2900
    2.9590    1.0820   20.3800
    2.9730    1.0920   20.4800
    2.9870    1.1020   20.5700
    3.0010    1.1120   20.6700
    3.0150    1.1220   20.7700
    3.0290    1.1320   20.8600
    3.0430    1.1430   20.9600
    3.0570    1.1530   21.0600
    3.0720    1.1640   21.1600
    3.0860    1.1750   21.2600
    3.1010    1.1860   21.3700
    3.1160    1.1970   21.4700
    3.1310    1.2090   21.5700
    3.1460    1.2200   21.6800
    3.1620    1.2320   21.7900
    3.1770    1.2440   21.8900
    3.1930    1.2560   22.0000
    3.2090    1.2680   22.1100
    3.2240    1.2800   22.2200
    3.2410    1.2930   22.3300
    3.2570    1.3050   22.4500
    3.2730    1.3180   22.5600
    3.2900    1.3310   22.6700
    3.3070    1.3450   22.7900
    3.3240    1.3580   22.9100
    3.3410    1.3720   23.0200
    3.3580    1.3860   23.1400
    3.3760    1.4000   23.2600
    3.3930    1.4140   23.3900
    3.4110    1.4290   23.5100
    3.4290    1.4440   23.6300
    3.4470    1.4590   23.7600
    3.4660    1.4740   23.8900
    3.4850    1.4900   24.0100
    3.5030    1.5050   24.1400
    3.5220    1.5210   24.2800
    3.5420    1.5380   24.4100
    3.5610    1.5540   24.5400
    3.5810    1.5710   24.6800
    3.6010    1.5880   24.8100
    3.6210    1.6050   24.9500
    3.6410    1.6230   25.0900
    3.6620    1.6410   25.2300
    3.6830    1.6590   25.3800
    3.7040    1.6780   25.5200
    3.7250    1.6970   25.6700
    3.7460    1.7160   25.8100
    3.7680    1.7350   25.9600
    3.7900    1.7550   26.1100
    3.8120    1.7750   26.2700
    3.8350    1.7960   26.4200
    3.8580    1.8170   26.5800
    3.8810    1.8380   26.7300
    3.9040    1.8590   26.8900
    3.9280    1.8810   27.0600
    3.9520    1.9040   27.2200
    3.9760    1.9270   27.3800
    4.0010    1.9500   27.5500
    4.0260    1.9740   27.7200
    4.0510    1.9980   27.8900
    4.0760    2.0220   28.0700
    4.1020    2.0470   28.2400
    4.1280    2.0720   28.4200
    4.1550    2.0980   28.6000
    4.1810    2.1250   28.7800
    4.2090    2.1520   28.9700
    4.2360    2.1790   29.1500
    4.2640    2.2070   29.3400
    4.2920    2.2350   29.5400
    4.3210    2.2640   29.7300
    4.3500    2.2940   29.9300
    4.3790    2.3240   30.1300
    4.4090    2.3550   30.3300
    4.4390    2.3860   30.5300
    4.4700    2.4180   30.7400
    4.5010    2.4510   30.9500
    4.5320    2.4840   31.1600
    4.5640    2.5180   31.3800
    4.5970    2.5530   31.6000
    4.6290    2.5880   31.8200
    4.6630    2.6240   32.0400
    4.6970    2.6610   32.2700
    4.7310    2.6990   32.5000
    4.7660    2.7370   32.7400
    4.8010    2.7760   32.9700
    4.8370    2.8170   33.2100
    4.8730    2.8580   33.4600
    4.9100    2.8990   33.7100
    4.9470    2.9420   33.9600
    4.9860    2.9860   34.2100
    5.0240    3.0310   34.4700
    5.0630    3.0770   34.7300
    5.1030    3.1230   35.0000
    5.1440    3.1710   35.2700
    5.1850    3.2200   35.5500
    5.2270    3.2700   35.8200
    5.2690    3.3210   36.1100
    5.3120    3.3740   36.4000
    5.3560    3.4270   36.6900
    5.4010    3.4820   36.9800
    5.4460    3.5390   37.2900
    5.4930    3.5960   37.5900
    5.5390    3.6550   37.9000
    5.5870    3.7160   38.2200
    5.6360    3.7780   38.5400
    5.6850    3.8410   38.8700
    5.7360    3.9060   39.2000
    5.7870    3.9730   39.5400
    5.8390    4.0420   39.8800
    5.8920    4.1120   40.2300
    5.9460    4.1840   40.5900
    6.0010    4.2580   40.9500
    6.0570    4.3340   41.3200
    6.1140    4.4120   41.6900
    6.1730    4.4920   42.0700
    6.2320    4.5740   42.4600
    6.2920    4.6580   42.8500
    6.3540    4.7450   43.2600
    6.4170    4.8340   43.6700
    6.4810    4.9260   44.0800
    6.5470    5.0200   44.5100
    6.6130    5.1170   44.9400
    6.6820    5.2160   45.3800
    6.7510    5.3190   45.8300
    6.8220    5.4240   46.2900
    6.8950    5.5330   46.7600
    6.9690    5.6450   47.2300
    7.0450    5.7600   47.7200
    7.1220    5.8790   48.2100
    7.2010    6.0010   48.7200
    7.2820    6.1270   49.2400
    7.3650    6.2580   49.7600
    7.4500    6.3920   50.3000
    7.5360    6.5300   50.8500
    7.6250    6.6730   51.4100
    7.7160    6.8200   51.9800
    7.8090    6.9730   52.5700
    7.9040    7.1300   53.1700
    8.0010    7.2930   53.7800
    8.1010    7.4610   54.4000
    8.2040    7.6340   55.0400
    8.3090    7.8140   55.7000
    8.4170    8.0000   56.3700
    8.5280    8.1930   57.0500
    8.6420    8.3920   57.7500
    8.7580    8.5980   58.4700
    8.8780    8.8120   59.2000
    9.0020    9.0340   59.9600
    9.1280    9.2630   60.7300
    9.2590    9.5020   61.5200
    9.3930    9.7490   62.3300
    9.5310   10.0100   63.1600
    9.6730   10.2700   64.0100
    9.8200   10.5500   64.8900
    9.9710   10.8400   65.7800
   10.1300   11.1400   66.7100];

